DB(|SF_TPwr(0,0)|)[*] (GHz) EM Structure 1 Frequency	DB(|SF_TPwr(0,0)|)[*] EM Structure 1
1	4.90241
1.01	4.90592
1.02	4.90947
1.03	4.91305
1.04	4.91667
1.05	4.92032
1.06	4.92401
1.07	4.92774
1.08	4.9315
1.09	4.9353
1.1	4.93914
1.11	4.94301
1.12	4.94692
1.13	4.95087
1.14	4.95485
1.15	4.95887
1.16	4.96293
1.17	4.96703
1.18	4.97116
1.19	4.97533
1.2	4.97954
1.21	4.98379
1.22	4.98807
1.23	4.9924
1.24	4.99676
1.25	5.00116
1.26	5.0056
1.27	5.01008
1.28	5.01459
1.29	5.01915
1.3	5.02375
1.31	5.02838
1.32	5.03305
1.33	5.03777
1.34	5.04252
1.35	5.04732
1.36	5.05215
1.37	5.05703
1.38	5.06195
1.39	5.0669
1.4	5.0719
1.41	5.07694
1.42	5.08203
1.43	5.08715
1.44	5.09232
1.45	5.09752
1.46	5.10278
1.47	5.10807
1.48	5.11341
1.49	5.11879
1.5	5.12421
1.51	5.12968
1.52	5.13519
1.53	5.14074
1.54	5.14634
1.55	5.15199
1.56	5.15768
1.57	5.16341
1.58	5.16919
1.59	5.17502
1.6	5.18089
1.61	5.1868
1.62	5.19276
1.63	5.19877
1.64	5.20483
1.65	5.21093
1.66	5.21708
1.67	5.22327
1.68	5.22951
1.69	5.2358
1.7	5.24214
1.71	5.24852
1.72	5.25495
1.73	5.26142
1.74	5.26795
1.75	5.27451
1.76	5.28113
1.77	5.28779
1.78	5.29449
1.79	5.30124
1.8	5.30804
1.81	5.31488
1.82	5.32176
1.83	5.32869
1.84	5.33565
1.85	5.34266
1.86	5.3497
1.87	5.35679
1.88	5.36391
1.89	5.37106
1.9	5.37825
1.91	5.38547
1.92	5.39271
1.93	5.39998
1.94	5.40728
1.95	5.41459
1.96	5.42192
1.97	5.42926
1.98	5.4366
1.99	5.44395
2	5.45129
2.01	5.45863
2.02	5.46594
2.03	5.47323
2.04	5.48049
2.05	5.4877
2.06	5.49487
2.07	5.50196
2.08	5.50898
2.09	5.51591
2.1	5.52273
2.11	5.52943
2.12	5.53598
2.13	5.54237
2.14	5.54858
2.15	5.55459
2.16	5.56038
2.17	5.56594
2.18	5.57129
2.19	5.57648
2.2	5.5816
2.21	5.58683
2.22	5.59225
2.23	5.59769
2.24	5.60258
2.25	5.60635
2.26	5.60279
2.27	5.60438
2.28	5.60491
2.29	5.60441
2.3	5.60287
2.31	5.60022
2.32	5.59635
2.33	5.48211
2.34	5.4892
2.35	5.49589
2.36	5.50211
2.37	5.50779
2.38	5.51283
2.39	5.5506
2.4	5.52113
2.41	5.48766
2.42	5.44976
2.43	5.41995
2.44	5.38461
2.45	5.34436
2.46	5.29866
2.47	5.2469
2.48	5.18845
2.49	5.10451
2.5	5.02817
2.51	4.94262
2.52	4.84694
2.53	4.74015
2.54	4.6212
2.55	4.48898
2.56	4.34237
2.57	4.18018
2.58	4.00127
2.59	3.80448
2.6	3.58875
2.61	3.35311
2.62	3.09678
2.63	2.81922
2.64	2.52022
2.65	2.20001
2.66	1.85934
2.67	1.49968
2.68	1.1233
2.69	0.733461
2.7	0.334535
2.71	-0.0678503
2.72	-0.466773
2.73	-0.854076
2.74	-1.22059
2.75	-1.5566
2.76	-1.85252
2.77	-2.09978
2.78	-2.29177
2.79	-2.42462
2.8	-2.49767
2.81	-2.51339
2.82	-2.47692
2.83	-2.39526
2.84	-2.27632
2.85	-2.12816
2.86	-1.95832
2.87	-1.77349
2.88	-1.57932
2.89	-1.38039
2.9	-1.18032
2.91	-0.981835
2.92	-0.786983
2.93	-0.597207
2.94	-0.413496
2.95	-0.236482
2.96	-0.0665253
2.97	0.0962176
2.98	0.251739
2.99	0.400141
3	0.541599
3.01	0.676341
3.02	0.804628
3.03	0.92674
3.04	1.04297
3.05	1.1536
3.06	1.25892
3.07	1.35921
3.08	1.45475
3.09	1.54578
3.1	1.63256
3.11	1.71532
3.12	1.79428
3.13	1.86965
3.14	1.94161
3.15	2.01036
3.16	2.07605
3.17	2.13886
3.18	2.19891
3.19	2.25636
3.2	2.31133
3.21	2.36393
3.22	2.41428
3.23	2.46247
3.24	2.50859
3.25	2.55272
3.26	2.59495
3.27	2.63533
3.28	2.67394
3.29	2.71082
3.3	2.74602
3.31	2.77957
3.32	2.81153
3.33	2.8419
3.34	2.87071
3.35	2.89797
3.36	2.92369
3.37	2.94786
3.38	2.97048
3.39	2.99151
3.4	3.01094
3.41	3.02873
3.42	3.04483
3.43	3.05917
3.44	3.07169
3.45	3.0823
3.46	3.09091
3.47	3.09738
3.48	3.1016
3.49	3.10341
3.5	3.10262
3.51	3.09904
3.52	3.09243
3.53	3.08253
3.54	3.06905
3.55	3.05165
3.56	3.02993
3.57	3.00347
3.58	2.97178
3.59	2.93429
3.6	2.89038
3.61	2.83934
3.62	2.78036
3.63	2.71253
3.64	2.63483
3.65	2.54611
3.66	2.44507
3.67	2.33027
3.68	2.20009
3.69	2.05271
3.7	1.88681
3.71	1.69617
3.72	1.48157
3.73	1.24038
3.74	0.969769
3.75	0.666725
3.76	0.379255
3.77	-0.0511996
3.78	-0.469004
3.79	-0.933831
3.8	-1.41764
3.81	-1.9779
3.82	-2.58937
3.83	-3.25098
3.84	-3.95836
3.85	-4.70197
3.86	-5.46446
3.87	-6.2175
3.88	-6.91924
3.89	-7.5152
3.9	-7.94659
3.91	-8.16734
3.92	-8.1626
3.93	-7.95511
3.94	-7.59406
3.95	-7.16873
3.96	-6.65991
3.97	-6.13818
3.98	-5.6139
3.99	-5.07589
4	-4.68188
