DB(|S(1,1)|) (GHz) EM Structure 1 Frequency	DB(|S(1,1)|) EM Structure 1
1	-0.0988026
1.01	-0.100392
1.02	-0.102043
1.03	-0.103759
1.04	-0.105542
1.05	-0.107395
1.06	-0.10932
1.07	-0.111322
1.08	-0.113403
1.09	-0.115568
1.1	-0.11782
1.11	-0.120165
1.12	-0.122608
1.13	-0.125153
1.14	-0.127806
1.15	-0.130575
1.16	-0.133466
1.17	-0.136486
1.18	-0.139644
1.19	-0.142948
1.2	-0.14641
1.21	-0.150039
1.22	-0.153849
1.23	-0.157851
1.24	-0.16206
1.25	-0.166493
1.26	-0.171168
1.27	-0.176103
1.28	-0.181321
1.29	-0.186846
1.3	-0.192705
1.31	-0.198928
1.32	-0.205549
1.33	-0.212607
1.34	-0.220143
1.35	-0.228207
1.36	-0.236852
1.37	-0.246142
1.38	-0.256146
1.39	-0.266946
1.4	-0.278634
1.41	-0.291317
1.42	-0.305119
1.43	-0.320183
1.44	-0.336675
1.45	-0.354793
1.46	-0.374766
1.47	-0.396868
1.48	-0.421423
1.49	-0.44882
1.5	-0.479529
1.51	-0.514119
1.52	-0.553285
1.53	-0.597885
1.54	-0.648984
1.55	-0.707917
1.56	-0.776374
1.57	-0.856518
1.58	-0.951146
1.59	-1.06392
1.6	-1.1997
1.61	-1.36502
1.62	-1.56882
1.63	-1.8235
1.64	-2.14661
1.65	-2.56349
1.66	-3.11154
1.67	-3.84749
1.68	-4.8607
1.69	-6.29984
1.7	-8.43748
1.71	-11.8765
1.72	-18.6329
1.73	-27.7848
1.74	-14.8857
1.75	-10.0312
1.76	-7.2491
1.77	-5.44544
1.78	-4.20739
1.79	-3.32714
1.8	-2.68456
1.81	-2.20507
1.82	-1.8403
1.83	-1.55797
1.84	-1.33602
1.85	-1.15907
1.86	-1.01619
1.87	-0.899489
1.88	-0.80318
1.89	-0.722952
1.9	-0.65555
1.91	-0.598491
1.92	-0.549853
1.93	-0.508132
1.94	-0.472144
1.95	-0.440943
1.96	-0.413769
1.97	-0.390005
1.98	-0.369149
1.99	-0.350787
2	-0.334575
2.01	-0.320229
2.02	-0.307508
2.03	-0.296212
2.04	-0.28617
2.05	-0.277236
2.06	-0.269286
2.07	-0.262213
2.08	-0.255927
2.09	-0.250347
2.1	-0.245405
2.11	-0.24104
2.12	-0.237201
2.13	-0.233842
2.14	-0.230923
2.15	-0.228408
2.16	-0.226266
2.17	-0.224471
2.18	-0.222997
2.19	-0.221823
2.2	-0.220931
2.21	-0.220303
2.22	-0.219925
2.23	-0.219783
2.24	-0.219866
2.25	-0.220164
2.26	-0.220666
2.27	-0.221366
2.28	-0.222256
2.29	-0.22333
2.3	-0.224583
2.31	-0.226009
2.32	-0.227606
2.33	-0.229368
2.34	-0.231295
2.35	-0.233383
2.36	-0.23563
2.37	-0.238036
2.38	-0.240599
2.39	-0.24332
2.4	-0.246197
2.41	-0.249232
2.42	-0.252424
2.43	-0.255776
2.44	-0.259288
2.45	-0.262962
2.46	-0.266802
2.47	-0.270808
2.48	-0.274985
2.49	-0.279335
2.5	-0.283862
2.51	-0.288571
2.52	-0.293466
2.53	-0.298552
2.54	-0.303836
2.55	-0.309323
2.56	-0.31502
2.57	-0.320935
2.58	-0.327076
2.59	-0.333453
2.6	-0.340076
2.61	-0.346955
2.62	-0.354104
2.63	-0.361536
2.64	-0.369265
2.65	-0.37731
2.66	-0.385689
2.67	-0.394423
2.68	-0.403537
2.69	-0.413057
2.7	-0.423015
2.71	-0.433446
2.72	-0.44439
2.73	-0.455894
2.74	-0.468013
2.75	-0.480811
2.76	-0.494363
2.77	-0.508757
2.78	-0.5241
2.79	-0.54052
2.8	-0.558172
2.81	-0.577247
2.82	-0.597979
2.83	-0.620662
2.84	-0.645665
2.85	-0.67346
2.86	-0.704653
2.87	-0.740034
2.88	-0.780644
2.89	-0.827873
2.9	-0.883593
2.91	-0.950358
2.92	-1.03168
2.93	-1.13238
2.94	-1.25909
2.95	-1.42064
2.96	-1.62811
2.97	-1.89313
2.98	-2.22203
2.99	-2.60144
3	-2.97634
3.01	-3.24422
3.02	-3.3094
3.03	-3.16878
3.04	-2.90997
3.05	-2.62843
3.06	-2.37831
3.07	-2.17696
3.08	-2.02324
3.09	-1.90984
3.1	-1.82876
3.11	-1.77314
3.12	-1.73762
3.13	-1.71814
3.14	-1.71169
3.15	-1.71605
3.16	-1.72958
3.17	-1.75109
3.18	-1.7797
3.19	-1.81479
3.2	-1.85591
3.21	-1.90276
3.22	-1.95517
3.23	-2.01303
3.24	-2.07631
3.25	-2.14505
3.26	-2.2193
3.27	-2.29917
3.28	-2.3848
3.29	-2.4763
3.3	-2.57381
3.31	-2.67747
3.32	-2.78736
3.33	-2.90355
3.34	-3.02601
3.35	-3.15466
3.36	-3.28927
3.37	-3.42947
3.38	-3.57469
3.39	-3.72414
3.4	-3.87671
3.41	-4.03097
3.42	-4.18511
3.43	-4.33699
3.44	-4.48405
3.45	-4.62339
3.46	-4.7518
3.47	-4.86582
3.48	-4.96196
3.49	-5.03693
3.5	-5.08782
3.51	-5.11245
3.52	-5.10949
3.53	-5.07864
3.54	-5.02069
3.55	-4.93741
3.56	-4.8314
3.57	-4.70589
3.58	-4.56444
3.59	-4.41074
3.6	-4.24834
3.61	-4.08056
3.62	-3.91034
3.63	-3.74017
3.64	-3.57214
3.65	-3.4079
3.66	-3.24872
3.67	-3.09554
3.68	-2.94899
3.69	-2.80948
3.7	-2.67721
3.71	-2.55223
3.72	-2.43448
3.73	-2.32381
3.74	-2.21998
3.75	-2.12273
3.76	-2.03177
3.77	-1.94678
3.78	-1.86744
3.79	-1.79344
3.8	-1.72445
3.81	-1.66017
3.82	-1.60031
3.83	-1.54459
3.84	-1.49273
3.85	-1.44451
3.86	-1.39967
3.87	-1.358
3.88	-1.3193
3.89	-1.28337
3.9	-1.25005
3.91	-1.21917
3.92	-1.19057
3.93	-1.16413
3.94	-1.13971
3.95	-1.11719
3.96	-1.09648
3.97	-1.07747
3.98	-1.06007
3.99	-1.04421
4	-1.0298
